#1k,2f(k),3kw
8.755602643e-04,3.122783289e-01,2.246904801e-03
4.612700113e-03,3.122787345e-01,5.229063397e-03
1.133375687e-02,3.122808542e-01,8.212515093e-03
2.103620733e-02,3.122870659e-01,1.119144215e-02
3.371443550e-02,3.123007959e-01,1.416375736e-02
4.936090754e-02,3.123265111e-01,1.712763020e-02
6.796628638e-02,3.123697101e-01,2.008127492e-02
8.951945782e-02,3.124368725e-01,2.302292128e-02
1.140075427e-01,3.125355530e-01,2.595080916e-02
1.414159063e-01,3.126742506e-01,2.886318771e-02
1.717281678e-01,3.128624591e-01,3.175831581e-02
2.049262107e-01,3.131106453e-01,3.463446283e-02
2.409901933e-01,3.134302342e-01,3.748990963e-02
2.798985608e-01,3.138335964e-01,4.032294945e-02
3.216280586e-01,3.143340339e-01,4.313188899e-02
3.661537456e-01,3.149457690e-01,4.591504936e-02
4.134490096e-01,3.156839391e-01,4.867076708e-02
4.634855830e-01,3.165646000e-01,5.139739508e-02
5.162335598e-01,3.176047426e-01,5.409330370e-02
5.716614133e-01,3.188223220e-01,5.675688162e-02
6.297360152e-01,3.202363017e-01,5.938653686e-02
6.904226553e-01,3.218667107e-01,6.198069772e-02
7.536850621e-01,3.237347129e-01,6.453781370e-02
8.194854247e-01,3.258626894e-01,6.705635644e-02
8.877844152e-01,3.282743310e-01,6.953482066e-02
9.585412125e-01,3.309947419e-01,7.197172502e-02
1.031713526e+00,3.340505550e-01,7.436561301e-02
1.107257622e+00,3.374700567e-01,7.671505384e-02
1.185128350e+00,3.412833239e-01,7.901864330e-02
1.265279166e+00,3.455223699e-01,8.127500455e-02
1.347662166e+00,3.502212998e-01,8.348278901e-02
1.432228112e+00,3.554164730e-01,8.564067712e-02
1.518926458e+00,3.611466689e-01,8.774737914e-02
1.607705388e+00,3.674532531e-01,8.980163593e-02
1.698511839e+00,3.743803360e-01,9.180221969e-02
1.791291537e+00,3.819749176e-01,9.374793470e-02
1.885989030e+00,3.902870064e-01,9.563761805e-02
1.982547719e+00,3.993696988e-01,9.747014029e-02
2.080909892e+00,4.092792011e-01,9.924440616e-02
2.181016759e+00,4.200747717e-01,1.009593552e-01
2.282808488e+00,4.318185548e-01,1.026139624e-01
2.386224240e+00,4.445752700e-01,1.042072389e-01
2.491202204e+00,4.584117170e-01,1.057382323e-01
2.597679638e+00,4.733960414e-01,1.072060277e-01
2.705592901e+00,4.895967048e-01,1.086097477e-01
2.814877495e+00,5.070810880e-01,1.099485533e-01
2.925468102e+00,5.259136534e-01,1.112216445e-01
3.037298625e+00,5.461535847e-01,1.124282602e-01
3.150302223e+00,5.678518266e-01,1.135676793e-01
3.264411357e+00,5.910474530e-01,1.146392207e-01
3.379557825e+00,6.157633183e-01,1.156422441e-01
3.495672806e+00,6.420009829e-01,1.165761500e-01
3.612686899e+00,6.697349691e-01,1.174403801e-01
3.730530168e+00,6.989064928e-01,1.182344179e-01
3.849132179e+00,7.294169337e-01,1.189577889e-01
3.968422045e+00,7.611214575e-01,1.196100607e-01
4.088328470e+00,7.938233623e-01,1.201908434e-01
4.208779786e+00,8.272698905e-01,1.206997899e-01
4.329704003e+00,8.611503703e-01,1.211365961e-01
4.451028844e+00,8.950976097e-01,1.215010008e-01
4.572681797e+00,9.286933923e-01,1.217927863e-01
4.694590152e+00,9.614786863e-01,1.220117782e-01
4.816681045e+00,9.929687528e-01,1.221578455e-01
4.938881505e+00,1.022672736e+00,1.222309010e-01
5.061118495e+00,1.050116626e+00,1.222309010e-01
5.183318955e+00,1.074867785e+00,1.221578455e-01
5.305409848e+00,1.096558754e+00,1.220117782e-01
5.427318203e+00,1.114907830e+00,1.217927863e-01
5.548971156e+00,1.129734159e+00,1.215010008e-01
5.670295997e+00,1.140965693e+00,1.211365961e-01
5.791220214e+00,1.148639309e+00,1.206997899e-01
5.911671530e+00,1.152893385e+00,1.201908434e-01
6.031577955e+00,1.153954082e+00,1.196100607e-01
6.150867821e+00,1.152117213e+00,1.189577889e-01
6.269469832e+00,1.147727873e+00,1.182344179e-01
6.387313101e+00,1.141159901e+00,1.174403801e-01
6.504327194e+00,1.132796904e+00,1.165761500e-01
6.620442175e+00,1.123016046e+00,1.156422441e-01
6.735588643e+00,1.112175240e+00,1.146392207e-01
6.849697777e+00,1.100603921e+00,1.135676793e-01
6.962701375e+00,1.088597173e+00,1.124282602e-01
7.074531898e+00,1.076412757e+00,1.112216445e-01
7.185122505e+00,1.064270483e+00,1.099485533e-01
7.294407099e+00,1.052353327e+00,1.086097477e-01
7.402320362e+00,1.040809752e+00,1.072060277e-01
7.508797796e+00,1.029756775e+00,1.057382323e-01
7.613775760e+00,1.019283397e+00,1.042072389e-01
7.717191512e+00,1.009454144e+00,1.026139624e-01
7.818983241e+00,1.000312505e+00,1.009593552e-01
7.919090108e+00,9.918841554e-01,9.924440616e-02
8.017452281e+00,9.841798938e-01,9.747014029e-02
8.114010970e+00,9.771982602e-01,9.563761805e-02
8.208708463e+00,9.709278296e-01,9.374793470e-02
8.301488161e+00,9.653491987e-01,9.180221969e-02
8.392294612e+00,9.604366866e-01,8.980163593e-02
8.481073542e+00,9.561597814e-01,8.774737914e-02
8.567771888e+00,9.524843616e-01,8.564067712e-02
8.652337834e+00,9.493737239e-01,8.348278901e-02
8.734720834e+00,9.467894453e-01,8.127500455e-02
8.814871650e+00,9.446921036e-01,7.901864330e-02
8.892742378e+00,9.430418790e-01,7.671505384e-02
8.968286474e+00,9.417990552e-01,7.436561301e-02
9.041458788e+00,9.409244351e-01,7.197172502e-02
9.112215585e+00,9.403796837e-01,6.953482066e-02
9.180514575e+00,9.401276102e-01,6.705635644e-02
9.246314938e+00,9.401323951e-01,6.453781370e-02
9.309577345e+00,9.403597720e-01,6.198069772e-02
9.370263985e+00,9.407771675e-01,5.938653686e-02
9.428338587e+00,9.413538052e-01,5.675688162e-02
9.483766440e+00,9.420607777e-01,5.409330370e-02
9.536514417e+00,9.428710892e-01,5.139739508e-02
9.586550990e+00,9.437596726e-01,4.867076708e-02
9.633846254e+00,9.447033846e-01,4.591504936e-02
9.678371941e+00,9.456809800e-01,4.313188899e-02
9.720101439e+00,9.466730701e-01,4.032294945e-02
9.759009807e+00,9.476620661e-01,3.748990963e-02
9.795073789e+00,9.486321114e-01,3.463446283e-02
9.828271832e+00,9.495690056e-01,3.175831581e-02
9.858584094e+00,9.504601214e-01,2.886318771e-02
9.885992457e+00,9.512943193e-01,2.595080916e-02
9.910480542e+00,9.520618601e-01,2.302292128e-02
9.932033714e+00,9.527543196e-01,2.008127492e-02
9.950639092e+00,9.533645061e-01,1.712763020e-02
9.966285565e+00,9.538863840e-01,1.416375736e-02
9.978963793e+00,9.543150038e-01,1.119144215e-02
9.988666243e+00,9.546464423e-01,8.212515093e-03
9.995387300e+00,9.548777549e-01,5.229063397e-03
9.999124440e+00,9.550069765e-01,2.246904801e-03
1.000271073e+01,9.551313856e-01,6.956417265e-03
1.001428092e+01,9.555354294e-01,1.618918028e-02
1.003508931e+01,9.562721936e-01,2.542594673e-02
1.006512810e+01,9.573580881e-01,3.464870491e-02
1.010437989e+01,9.588151615e-01,4.385099278e-02
1.015282137e+01,9.606696290e-01,5.302714311e-02
1.021042362e+01,9.629497633e-01,6.217162715e-02
1.027715224e+01,9.656832382e-01,7.127896429e-02
1.035296735e+01,9.688939226e-01,8.034370517e-02
1.043782365e+01,9.725981403e-01,8.936042916e-02
1.053167041e+01,9.768004375e-01,9.832374574e-02
1.063445155e+01,9.814889560e-01,1.072282969e-01
1.074610564e+01,9.866305851e-01,1.160687602e-01
1.086656594e+01,9.921661700e-01,1.248398515e-01
1.099576047e+01,9.980061913e-01,1.335363283e-01
1.113361200e+01,1.004027483e+00,1.421529928e-01
1.128003813e+01,1.010071716e+00,1.506846949e-01
1.143495136e+01,1.015946502e+00,1.591263352e-01
1.159825910e+01,1.021430001e+00,1.674728682e-01
1.176986374e+01,1.026279804e+00,1.757193055e-01
1.194966270e+01,1.030246497e+00,1.838607181e-01
1.213754854e+01,1.033091734e+00,1.918922401e-01
1.233340895e+01,1.034609761e+00,1.998090712e-01
1.253712687e+01,1.034650402e+00,2.076064795e-01
1.274858055e+01,1.033140682e+00,2.152798048e-01
1.296764359e+01,1.030101807e+00,2.228244607e-01
1.319418508e+01,1.025658442e+00,2.302359379e-01
1.342806960e+01,1.020038113e+00,2.375098067e-01
1.366915737e+01,1.013560092e+00,2.446417196e-01
1.391730430e+01,1.006614744e+00,2.516274141e-01
1.417236207e+01,9.996357504e-01,2.584627148e-01
1.443417823e+01,9.930683979e-01,2.651435363e-01
1.470259631e+01,9.873371153e-01,2.716658858e-01
1.497745588e+01,9.828148323e-01,2.780258648e-01
1.525859265e+01,9.797958219e-01,2.842196721e-01
1.554583860e+01,9.784728712e-01,2.902436058e-01
1.583902204e+01,9.789192342e-01,2.960940655e-01
1.613796774e+01,9.810760070e-01,3.017675543e-01
1.644249703e+01,9.847462969e-01,3.072606815e-01
1.675242789e+01,9.895985713e-01,3.125701637e-01
1.706757508e+01,9.951823631e-01,3.176928277e-01
1.738775025e+01,1.000959401e+00,3.226256116e-01
1.771276202e+01,1.006351548e+00,3.273655673e-01
1.804241616e+01,1.010803350e+00,3.319098617e-01
1.837651562e+01,1.013852086e+00,3.362557788e-01
1.871486072e+01,1.015193535e+00,3.404007211e-01
1.905724924e+01,1.014729545e+00,3.443422113e-01
1.940347654e+01,1.012585624e+00,3.480778935e-01
1.975333568e+01,1.009093278e+00,3.516055350e-01
2.010661756e+01,1.004740366e+00,3.549230273e-01
2.046311103e+01,1.000100063e+00,3.580283878e-01
2.082260301e+01,9.957524179e-01,3.609197603e-01
2.118487864e+01,9.922114914e-01,3.635954167e-01
2.154972140e+01,9.898670601e-01,3.660537579e-01
2.191691323e+01,9.889453776e-01,3.682933144e-01
2.228623465e+01,9.894901246e-01,3.703127479e-01
2.265746494e+01,9.913631714e-01,3.721108512e-01
2.303038222e+01,9.942645151e-01,3.736865497e-01
2.340476359e+01,9.977706064e-01,3.750389016e-01
2.378038530e+01,1.001389099e+00,3.761670986e-01
2.415702284e+01,1.004625348e+00,3.770704665e-01
2.453445111e+01,1.007052287e+00,3.777484652e-01
2.491244452e+01,1.008372206e+00,3.782006896e-01
2.529077714e+01,1.008458431e+00,3.784268694e-01
2.566922286e+01,1.007368127e+00,3.784268694e-01
2.604755548e+01,1.005323925e+00,3.782006896e-01
2.642554889e+01,1.002669398e+00,3.777484652e-01
2.680297716e+01,9.998089995e-01,3.770704665e-01
2.717961470e+01,9.971448857e-01,3.761670986e-01
2.755523641e+01,9.950214403e-01,3.750389016e-01
2.792961778e+01,9.936845277e-01,3.736865497e-01
2.830253506e+01,9.932585101e-01,3.721108512e-01
2.867376535e+01,9.937409813e-01,3.703127479e-01
2.904308677e+01,9.950133281e-01,3.682933144e-01
2.941027860e+01,9.968642738e-01,3.660537579e-01
2.977512136e+01,9.990229213e-01,3.635954167e-01
3.013739699e+01,1.001197155e+00,3.609197603e-01
3.049688897e+01,1.003112594e+00,3.580283878e-01
3.085338244e+01,1.004546947e+00,3.549230273e-01
3.120666432e+01,1.005355070e+00,3.516055350e-01
3.155652346e+01,1.005481450e+00,3.480778935e-01
3.190275076e+01,1.004959067e+00,3.443422113e-01
3.224513928e+01,1.003896125e+00,3.404007211e-01
3.258348438e+01,1.002454110e+00,3.362557788e-01
3.291758384e+01,1.000821729e+00,3.319098617e-01
3.324723798e+01,9.991891909e-01,3.273655673e-01
3.357224975e+01,9.977263392e-01,3.226256116e-01
3.389242492e+01,9.965667730e-01,3.176928277e-01
3.420757211e+01,9.957987268e-01,3.125701637e-01
3.451750297e+01,9.954623886e-01,3.072606815e-01
3.482203226e+01,9.955526456e-01,3.017675543e-01
3.512097796e+01,9.960258991e-01,2.960940655e-01
3.541416140e+01,9.968095014e-01,2.902436058e-01
3.570140735e+01,9.978124342e-01,2.842196721e-01
3.598254412e+01,9.989360111e-01,2.780258648e-01
3.625740369e+01,1.000083599e+00,2.716658858e-01
3.652582177e+01,1.001168604e+00,2.651435363e-01
3.678763793e+01,1.002120266e+00,2.584627148e-01
3.704269570e+01,1.002887051e+00,2.516274141e-01
3.729084263e+01,1.003437757e+00,2.446417196e-01
3.753193040e+01,1.003760624e+00,2.375098067e-01
3.776581492e+01,1.003860917e+00,2.302359379e-01
3.799235641e+01,1.003757512e+00,2.228244607e-01
3.821141945e+01,1.003479026e+00,2.152798048e-01
3.842287313e+01,1.003059937e+00,2.076064795e-01
3.862659105e+01,1.002537066e+00,1.998090712e-01
3.882245146e+01,1.001946637e+00,1.918922401e-01
3.901033730e+01,1.001322045e+00,1.838607181e-01
3.919013626e+01,1.000692336e+00,1.757193055e-01
3.936174090e+01,1.000081351e+00,1.674728682e-01
3.952504864e+01,9.995074325e-01,1.591263352e-01
3.967996187e+01,9.989835663e-01,1.506846949e-01
3.982638800e+01,9.985178354e-01,1.421529928e-01
3.996423953e+01,9.981140729e-01,1.335363283e-01
4.009343406e+01,9.977726106e-01,1.248398515e-01
4.021389436e+01,9.974910500e-01,1.160687602e-01
4.032554845e+01,9.972649975e-01,1.072282969e-01
4.042832959e+01,9.970887266e-01,9.832374574e-02
4.052217635e+01,9.969557476e-01,8.936042916e-02
4.060703265e+01,9.968592755e-01,8.034370517e-02
4.068284776e+01,9.967925985e-01,7.127896429e-02
4.074957638e+01,9.967493557e-01,6.217162715e-02
4.080717863e+01,9.967237352e-01,5.302714311e-02
4.085562011e+01,9.967106076e-01,4.385099278e-02
4.089487190e+01,9.967056088e-01,3.464870491e-02
4.092491069e+01,9.967051858e-01,2.542594673e-02
4.094571908e+01,9.967066179e-01,1.618918028e-02
4.095728927e+01,9.967080237e-01,6.956417265e-03
