#1k,2f(k),3kw
8.755602643e-04,3.122783179e-01,2.246904801e-03
4.612700113e-03,3.122784298e-01,5.229063397e-03
1.133375687e-02,3.122790186e-01,8.212515093e-03
2.103620733e-02,3.122807813e-01,1.119144215e-02
3.371443550e-02,3.122848738e-01,1.416375736e-02
4.936090754e-02,3.122932578e-01,1.712763020e-02
6.796628638e-02,3.123094068e-01,2.008127492e-02
8.951945782e-02,3.123394540e-01,2.302292128e-02
1.140075427e-01,3.123939909e-01,2.595080916e-02
1.414159063e-01,3.124899711e-01,2.886318771e-02
1.717281678e-01,3.126526829e-01,3.175831581e-02
2.049262107e-01,3.129168413e-01,3.463446283e-02
2.409901933e-01,3.133261261e-01,3.748990963e-02
2.798985608e-01,3.139306494e-01,4.032294945e-02
3.216280586e-01,3.147824066e-01,4.313188899e-02
3.661537456e-01,3.159294476e-01,4.591504936e-02
4.134490096e-01,3.174099833e-01,4.867076708e-02
4.634855830e-01,3.192477067e-01,5.139739508e-02
5.162335598e-01,3.214492476e-01,5.409330370e-02
5.716614133e-01,3.240040923e-01,5.675688162e-02
6.297360152e-01,3.268867425e-01,5.938653686e-02
6.904226553e-01,3.300605160e-01,6.198069772e-02
7.536850621e-01,3.334822464e-01,6.453781370e-02
8.194854247e-01,3.371071779e-01,6.705635644e-02
8.877844152e-01,3.408934886e-01,6.953482066e-02
9.585412125e-01,3.448060671e-01,7.197172502e-02
1.031713526e+00,3.488193473e-01,7.436561301e-02
1.107257622e+00,3.529191649e-01,7.671505384e-02
1.185128350e+00,3.571037158e-01,7.901864330e-02
1.265279166e+00,3.613837660e-01,8.127500455e-02
1.347662166e+00,3.657822953e-01,8.348278901e-02
1.432228112e+00,3.703337552e-01,8.564067712e-02
1.518926458e+00,3.750831025e-01,8.774737914e-02
1.607705388e+00,3.800847383e-01,8.980163593e-02
1.698511839e+00,3.854014467e-01,9.180221969e-02
1.791291537e+00,3.911034000e-01,9.374793470e-02
1.885989030e+00,3.972672669e-01,9.563761805e-02
1.982547719e+00,4.039754390e-01,9.747014029e-02
2.080909892e+00,4.113153769e-01,9.924440616e-02
2.181016759e+00,4.193790576e-01,1.009593552e-01
2.282808488e+00,4.282624978e-01,1.026139624e-01
2.386224240e+00,4.380653124e-01,1.042072389e-01
2.491202204e+00,4.488902577e-01,1.057382323e-01
2.597679638e+00,4.608426917e-01,1.072060277e-01
2.705592901e+00,4.740298757e-01,1.086097477e-01
2.814877495e+00,4.885600176e-01,1.099485533e-01
2.925468102e+00,5.045409480e-01,1.112216445e-01
3.037298625e+00,5.220783005e-01,1.124282602e-01
3.150302223e+00,5.412730545e-01,1.135676793e-01
3.264411357e+00,5.622182955e-01,1.146392207e-01
3.379557825e+00,5.849950480e-01,1.156422441e-01
3.495672806e+00,6.096670598e-01,1.165761500e-01
3.612686899e+00,6.362744646e-01,1.174403801e-01
3.730530168e+00,6.648263276e-01,1.182344179e-01
3.849132179e+00,6.952922043e-01,1.189577889e-01
3.968422045e+00,7.275930137e-01,1.196100607e-01
4.088328470e+00,7.615917428e-01,1.201908434e-01
4.208779786e+00,7.970847521e-01,1.206997899e-01
4.329704003e+00,8.337947042e-01,1.211365961e-01
4.451028844e+00,8.713663536e-01,1.215010008e-01
4.572681797e+00,9.093665351e-01,1.217927863e-01
4.694590152e+00,9.472896160e-01,1.220117782e-01
4.816681045e+00,9.845693506e-01,1.221578455e-01
4.938881505e+00,1.020597484e+00,1.222309010e-01
5.061118495e+00,1.054748612e+00,1.222309010e-01
5.183318955e+00,1.086409839e+00,1.221578455e-01
5.305409848e+00,1.115012847e+00,1.220117782e-01
5.427318203e+00,1.140065326e+00,1.217927863e-01
5.548971156e+00,1.161178497e+00,1.215010008e-01
5.670295997e+00,1.178087771e+00,1.211365961e-01
5.791220214e+00,1.190664444e+00,1.206997899e-01
5.911671530e+00,1.198917482e+00,1.201908434e-01
6.031577955e+00,1.202985772e+00,1.196100607e-01
6.150867821e+00,1.203122310e+00,1.189577889e-01
6.269469832e+00,1.199672620e+00,1.182344179e-01
6.387313101e+00,1.193049996e+00,1.174403801e-01
6.504327194e+00,1.183710092e+00,1.165761500e-01
6.620442175e+00,1.172127000e+00,1.156422441e-01
6.735588643e+00,1.158772323e+00,1.146392207e-01
6.849697777e+00,1.144098167e+00,1.135676793e-01
6.962701375e+00,1.128524370e+00,1.124282602e-01
7.074531898e+00,1.112429862e+00,1.112216445e-01
7.185122505e+00,1.096147710e+00,1.099485533e-01
7.294407099e+00,1.079963255e+00,1.086097477e-01
7.402320362e+00,1.064114667e+00,1.072060277e-01
7.508797796e+00,1.048795264e+00,1.057382323e-01
7.613775760e+00,1.034157017e+00,1.042072389e-01
7.717191512e+00,1.020314741e+00,1.026139624e-01
7.818983241e+00,1.007350587e+00,1.009593552e-01
7.919090108e+00,9.953185486e-01,9.924440616e-02
8.017452281e+00,9.842487773e-01,9.747014029e-02
8.114010970e+00,9.741515719e-01,9.563761805e-02
8.208708463e+00,9.650209785e-01,9.374793470e-02
8.301488161e+00,9.568379648e-01,9.180221969e-02
8.392294612e+00,9.495731730e-01,8.980163593e-02
8.481073542e+00,9.431892717e-01,8.774737914e-02
8.567771888e+00,9.376429421e-01,8.564067712e-02
8.652337834e+00,9.328865380e-01,8.348278901e-02
8.734720834e+00,9.288694613e-01,8.127500455e-02
8.814871650e+00,9.255392952e-01,7.901864330e-02
8.892742378e+00,9.228427308e-01,7.671505384e-02
8.968286474e+00,9.207263234e-01,7.436561301e-02
9.041458788e+00,9.191371055e-01,7.197172502e-02
9.112215585e+00,9.180230827e-01,6.953482066e-02
9.180514575e+00,9.173336320e-01,6.705635644e-02
9.246314938e+00,9.170198205e-01,6.453781370e-02
9.309577345e+00,9.170346563e-01,6.198069772e-02
9.370263985e+00,9.173332835e-01,5.938653686e-02
9.428338587e+00,9.178731293e-01,5.675688162e-02
9.483766440e+00,9.186140099e-01,5.409330370e-02
9.536514417e+00,9.195182002e-01,5.139739508e-02
9.586550990e+00,9.205504726e-01,4.867076708e-02
9.633846254e+00,9.216781080e-01,4.591504936e-02
9.678371941e+00,9.228708820e-01,4.313188899e-02
9.720101439e+00,9.241010311e-01,4.032294945e-02
9.759009807e+00,9.253431996e-01,3.748990963e-02
9.795073789e+00,9.265743721e-01,3.463446283e-02
9.828271832e+00,9.277737940e-01,3.175831581e-02
9.858584094e+00,9.289228821e-01,2.886318771e-02
9.885992457e+00,9.300051304e-01,2.595080916e-02
9.910480542e+00,9.310060117e-01,2.302292128e-02
9.932033714e+00,9.319128797e-01,2.008127492e-02
9.950639092e+00,9.327148731e-01,1.712763020e-02
9.966285565e+00,9.334028258e-01,1.416375736e-02
9.978963793e+00,9.339691837e-01,1.119144215e-02
9.988666243e+00,9.344079328e-01,8.212515093e-03
9.995387300e+00,9.347145425e-01,5.229063397e-03
9.999124440e+00,9.348859708e-01,2.246904801e-03
1.000271073e+01,9.350511101e-01,6.956417265e-03
1.001428092e+01,9.355880689e-01,1.618918028e-02
1.003508931e+01,9.365696331e-01,2.542594673e-02
1.006512810e+01,9.380217994e-01,3.464870491e-02
1.010437989e+01,9.399799558e-01,4.385099278e-02
1.015282137e+01,9.424869448e-01,5.302714311e-02
1.021042362e+01,9.455902535e-01,6.217162715e-02
1.027715224e+01,9.493384158e-01,7.127896429e-02
1.035296735e+01,9.537765800e-01,8.034370517e-02
1.043782365e+01,9.589411999e-01,8.936042916e-02
1.053167041e+01,9.648538308e-01,9.832374574e-02
1.063445155e+01,9.715140724e-01,1.072282969e-01
1.074610564e+01,9.788918036e-01,1.160687602e-01
1.086656594e+01,9.869190132e-01,1.248398515e-01
1.099576047e+01,9.954817663e-01,1.335363283e-01
1.113361200e+01,1.004413151e+00,1.421529928e-01
1.128003813e+01,1.013488413e+00,1.506846949e-01
1.143495136e+01,1.022423853e+00,1.591263352e-01
1.159825910e+01,1.030881307e+00,1.674728682e-01
1.176986374e+01,1.038480034e+00,1.757193055e-01
1.194966270e+01,1.044817364e+00,1.838607181e-01
1.213754854e+01,1.049498359e+00,1.918922401e-01
1.233340895e+01,1.052173061e+00,1.998090712e-01
1.253712687e+01,1.052577695e+00,2.076064795e-01
1.274858055e+01,1.050574188e+00,2.152798048e-01
1.296764359e+01,1.046181177e+00,2.228244607e-01
1.319418508e+01,1.039590031e+00,2.302359379e-01
1.342806960e+01,1.031161633e+00,2.375098067e-01
1.366915737e+01,1.021403305e+00,2.446417196e-01
1.391730430e+01,1.010929195e+00,2.516274141e-01
1.417236207e+01,1.000410414e+00,2.584627148e-01
1.443417823e+01,9.905222744e-01,2.651435363e-01
1.470259631e+01,9.818949151e-01,2.716658858e-01
1.497745588e+01,9.750712348e-01,2.780258648e-01
1.525859265e+01,9.704732698e-01,2.842196721e-01
1.554583860e+01,9.683760838e-01,2.902436058e-01
1.583902204e+01,9.688874082e-01,2.960940655e-01
1.613796774e+01,9.719318902e-01,3.017675543e-01
1.644249703e+01,9.772407111e-01,3.072606815e-01
1.675242789e+01,9.843500661e-01,3.125701637e-01
1.706757508e+01,9.926147146e-01,3.176928277e-01
1.738775025e+01,1.001244220e+00,3.226256116e-01
1.771276202e+01,1.009367947e+00,3.273655673e-01
1.804241616e+01,1.016129060e+00,3.319098617e-01
1.837651562e+01,1.020797924e+00,3.362557788e-01
1.871486072e+01,1.022884477e+00,3.404007211e-01
1.905724924e+01,1.022222640e+00,3.443422113e-01
1.940347654e+01,1.019002768e+00,3.480778935e-01
1.975333568e+01,1.013741292e+00,3.516055350e-01
2.010661756e+01,1.007194868e+00,3.549230273e-01
2.046311103e+01,1.000241131e+00,3.580283878e-01
2.082260301e+01,9.937532833e-01,3.609197603e-01
2.118487864e+01,9.884909318e-01,3.635954167e-01
2.154972140e+01,9.850194447e-01,3.660537579e-01
2.191691323e+01,9.836604913e-01,3.682933144e-01
2.228623465e+01,9.844709654e-01,3.703127479e-01
2.265746494e+01,9.872466895e-01,3.721108512e-01
2.303038222e+01,9.915493791e-01,3.736865497e-01
2.340476359e+01,9.967575656e-01,3.750389016e-01
2.378038530e+01,1.002141989e+00,3.761670986e-01
2.415702284e+01,1.006961921e+00,3.770704665e-01
2.453445111e+01,1.010571577e+00,3.777484652e-01
2.491244452e+01,1.012518285e+00,3.782006896e-01
2.529077714e+01,1.012610935e+00,3.784268694e-01
2.566922286e+01,1.010941795e+00,3.784268694e-01
2.604755548e+01,1.007856584e+00,3.782006896e-01
2.642554889e+01,1.003881842e+00,3.777484652e-01
2.680297716e+01,9.996289065e-01,3.770704665e-01
2.717961470e+01,9.956963197e-01,3.761670986e-01
2.755523641e+01,9.925880018e-01,3.750389016e-01
2.792961778e+01,9.906566169e-01,3.736865497e-01
2.830253506e+01,9.900743357e-01,3.721108512e-01
2.867376535e+01,9.908287028e-01,3.703127479e-01
2.904308677e+01,9.927396354e-01,3.682933144e-01
2.941027860e+01,9.954934553e-01,3.660537579e-01
2.977512136e+01,9.986898729e-01,3.635954167e-01
3.013739699e+01,1.001897147e+00,3.609197603e-01
3.049688897e+01,1.004709241e+00,3.580283878e-01
3.085338244e+01,1.006797465e+00,3.549230273e-01
3.120666432e+01,1.007948965e+00,3.516055350e-01
3.155652346e+01,1.008086169e+00,3.480778935e-01
3.190275076e+01,1.007264923e+00,3.443422113e-01
3.224513928e+01,1.005653406e+00,3.404007211e-01
3.258348438e+01,1.003497574e+00,3.362557788e-01
3.291758384e+01,1.001080722e+00,3.319098617e-01
3.324723798e+01,9.986844740e-01,3.273655673e-01
3.357224975e+01,9.965566172e-01,3.226256116e-01
3.389242492e+01,9.948887313e-01,3.176928277e-01
3.420757211e+01,9.938042369e-01,3.125701637e-01
3.451750297e+01,9.933558851e-01,3.072606815e-01
3.482203226e+01,9.935308335e-01,3.017675543e-01
3.512097796e+01,9.942611802e-01,2.960940655e-01
3.541416140e+01,9.954378830e-01,2.902436058e-01
3.570140735e+01,9.969262079e-01,2.842196721e-01
3.598254412e+01,9.985811075e-01,2.780258648e-01
3.625740369e+01,1.000261195e+00,2.716658858e-01
3.652582177e+01,1.001840281e+00,2.651435363e-01
3.678763793e+01,1.003215782e+00,2.584627148e-01
3.704269570e+01,1.004313669e+00,2.516274141e-01
3.729084263e+01,1.005090048e+00,2.446417196e-01
3.753193040e+01,1.005529769e+00,2.375098067e-01
3.776581492e+01,1.005642736e+00,2.302359379e-01
3.799235641e+01,1.005458736e+00,2.228244607e-01
3.821141945e+01,1.005021573e+00,2.152798048e-01
3.842287313e+01,1.004383244e+00,2.076064795e-01
3.862659105e+01,1.003598686e+00,1.998090712e-01
3.882245146e+01,1.002721443e+00,1.918922401e-01
3.901033730e+01,1.001800432e+00,1.838607181e-01
3.919013626e+01,1.000877796e+00,1.757193055e-01
3.936174090e+01,9.999877531e-01,1.674728682e-01
3.952504864e+01,9.991562809e-01,1.591263352e-01
3.967996187e+01,9.984014271e-01,1.506846949e-01
3.982638800e+01,9.977340632e-01,1.421529928e-01
3.996423953e+01,9.971589029e-01,1.335363283e-01
4.009343406e+01,9.966756420e-01,1.248398515e-01
4.021389436e+01,9.962801085e-01,1.160687602e-01
4.032554845e+01,9.959653453e-01,1.072282969e-01
4.042832959e+01,9.957225741e-01,9.832374574e-02
4.052217635e+01,9.955420157e-01,8.936042916e-02
4.060703265e+01,9.954135574e-01,8.034370517e-02
4.068284776e+01,9.953272733e-01,7.127896429e-02
4.074957638e+01,9.952738116e-01,6.217162715e-02
4.080717863e+01,9.952446673e-01,5.302714311e-02
4.085562011e+01,9.952323618e-01,4.385099278e-02
4.089487190e+01,9.952305517e-01,3.464870491e-02
4.092491069e+01,9.952340850e-01,2.542594673e-02
4.094571908e+01,9.952390241e-01,1.618918028e-02
4.095728927e+01,9.952426499e-01,6.956417265e-03
